Energy,Value,Error
1e-07,1.99722e-12,0.112
4.14e-07,4.22637e-11,0.027
5.316e-07,2.95924e-11,0.0343
6.826e-07,4.52744e-11,0.0291
8.764e-07,6.88922e-11,0.0253
1.125e-06,1.03619e-10,0.0203
1.445e-06,1.46457e-10,0.0198
1.855e-06,2.07226e-10,0.0154
2.382e-06,2.8034e-10,0.0132
3.059e-06,3.96532e-10,0.0115
3.928e-06,5.5082e-10,0.0109
5.043e-06,7.65863e-10,0.0088
6.476e-06,1.08742e-09,0.0073
8.315e-06,1.53772e-09,0.0061
1.068e-05,2.21611e-09,0.0053
1.371e-05,3.10305e-09,0.0044
1.76e-05,4.43788e-09,0.0037
2.26e-05,6.37072e-09,0.0032
2.902e-05,9.09762e-09,0.0026
3.727e-05,1.30289e-08,0.0022
4.785e-05,1.87509e-08,0.0019
6.144e-05,2.70596e-08,0.0016
7.889e-05,3.90223e-08,0.0013
0.0001013,5.60926e-08,0.0011
0.0001301,8.07844e-08,0.0009
0.000167,1.15706e-07,0.0008
0.0002145,1.65633e-07,0.0006
0.0002754,2.3433e-07,0.0005
0.0003536,3.26184e-07,0.0005
0.000454,4.43845e-07,0.0004
0.0005829,5.79955e-07,0.0003
0.0007485,7.094e-07,0.0003
0.0009611,7.75448e-07,0.0003
0.001234,7.07703e-07,0.0003
0.001585,4.83233e-07,0.0004
0.002035,2.00309e-07,0.0006
0.002249,2.33497e-08,0.002
0.002485,7.74183e-09,0.0034
0.002613,1.15021e-09,0.0097
0.002747,4.41866e-10,0.0195
0.003035,5.152e-10,0.0147
0.003355,2.40702e-09,0.0077
0.003707,8.71619e-09,0.004
0.004307,3.82726e-08,0.0017
0.005531,1.73828e-07,0.0007
0.007102,3.47955e-07,0.0005
0.009119,5.32718e-07,0.0004
0.01059,4.07729e-07,0.0004
0.01171,3.11873e-07,0.0005
0.01503,9.08286e-07,0.0003
0.0193,1.08949e-06,0.0003
0.02187,6.02067e-07,0.0003
0.02358,3.79066e-07,0.0004
0.02418,1.28876e-07,0.0007
0.02479,1.29106e-07,0.0007
0.02606,2.61845e-07,0.0005
0.027,1.88279e-07,0.0006
0.0285,2.90616e-07,0.0005
0.03183,6.05097e-07,0.0003
0.03431,4.16307e-07,0.0004
0.04087,9.62663e-07,0.0003
0.04631,6.94312e-07,0.0003
0.05248,4.45564e-07,0.0004
0.05656,1.33739e-07,0.0008
0.06738,8.35543e-07,0.0003
0.07202,3.36137e-07,0.0005
0.0795,4.96839e-07,0.0004
0.0825,1.86285e-07,0.0006
0.08652,2.39781e-07,0.0005
0.09804,6.34153e-07,0.0003
0.1111,6.48626e-07,0.0003
0.1168,2.76542e-07,0.0005
0.1228,2.8802e-07,0.0005
0.1291,2.98188e-07,0.0005
0.1357,3.06809e-07,0.0005
0.1426,3.1553e-07,0.0005
0.15,3.29056e-07,0.0005
0.1576,3.33523e-07,0.0005
0.1657,3.50376e-07,0.0004
0.1742,3.64606e-07,0.0004
0.1832,3.61755e-07,0.0004
0.1925,3.20617e-07,0.0005
0.2024,1.727e-07,0.0007
0.2128,2.02918e-07,0.0006
0.2237,2.54879e-07,0.0005
0.2352,2.68598e-07,0.0005
0.2472,1.51313e-07,0.0008
0.2732,7.80039e-07,0.0003
0.2872,4.82151e-07,0.0004
0.2945,3.02258e-07,0.0004
0.2972,1.81714e-07,0.0005
0.2985,7.24928e-08,0.0009
0.302,4.16347e-08,0.0014
0.3337,7.82347e-07,0.0003
0.3688,8.59697e-07,0.0003
0.3877,3.1081e-07,0.0005
0.4076,2.28765e-07,0.0006
0.4505,6.90426e-07,0.0003
0.4979,1.09787e-06,0.0002
0.5234,7.44842e-07,0.0003
0.5502,4.43801e-07,0.0004
0.5784,2.75449e-07,0.0005
0.6081,2.05632e-07,0.0006
0.6393,2.14946e-07,0.0005
0.6721,1.53042e-07,0.0007
0.7065,8.4782e-08,0.001
0.7427,8.50709e-08,0.001
0.7808,1.33189e-07,0.0008
0.8209,1.21269e-07,0.0008
0.8629,1.83852e-07,0.0006
0.9072,1.65821e-07,0.0006
0.9617,1.95946e-07,0.0006
1.003,1.61118e-07,0.0006
1.108,3.13136e-07,0.0005
1.165,1.89666e-07,0.0006
1.225,2.09196e-07,0.0006
1.287,2.38059e-07,0.0005
1.353,2.44418e-07,0.0005
1.423,2.88075e-07,0.0005
1.496,3.17565e-07,0.0004
1.572,3.45713e-07,0.0004
1.653,2.53787e-07,0.0005
1.738,2.90073e-07,0.0005
1.827,2.54166e-07,0.0005
1.921,3.56708e-07,0.0004
2.019,2.4151e-07,0.0005
2.122,1.87388e-07,0.0006
2.231,2.00889e-07,0.0005
2.307,1.43895e-07,0.0006
2.346,7.67342e-08,0.0009
2.365,3.62565e-08,0.0013
2.385,3.61289e-08,0.0013
2.466,1.20044e-07,0.0007
2.592,2.01763e-07,0.0005
2.725,2.25871e-07,0.0005
2.865,2.02876e-07,0.0005
3.012,2.05784e-07,0.0005
3.166,2.64415e-07,0.0004
3.329,2.27111e-07,0.0005
3.679,3.97495e-07,0.0004
4.066,4.09908e-07,0.0003
4.493,3.89421e-07,0.0004
4.724,2.01057e-07,0.0005
4.966,1.87541e-07,0.0005
5.22,1.93295e-07,0.0005
5.488,1.7048e-07,0.0005
5.77,1.72989e-07,0.0005
6.065,1.7489e-07,0.0005
6.376,1.60083e-07,0.0005
6.592,1.09106e-07,0.0006
6.703,5.28906e-08,0.0009
7.047,1.67353e-07,0.0005
7.408,1.70106e-07,0.0005
7.788,1.66612e-07,0.0005
8.187,1.69508e-07,0.0005
8.607,1.79625e-07,0.0005
9.048,1.83496e-07,0.0004
9.512,2.07559e-07,0.0004
10.0,2.30676e-07,0.0004
10.51,3.73788e-07,0.0003
11.05,3.90388e-07,0.0003
11.62,4.02422e-07,0.0003
12.21,4.07949e-07,0.0003
12.52,2.11136e-07,0.0004
12.84,2.13492e-07,0.0004
13.5,4.01252e-07,0.0003
13.84,1.81554e-07,0.0004
14.19,6.45369e-08,0.0007
14.55,0.0,0.0
14.92,0.0,0.0
15.68,0.0,0.0
16.49,0.0,0.0
16.9,0.0,0.0
17.33,0.0,0.0
19.64,0.0,0.0
